Wavelength (nm),Air_n,Air_k,Cu_n,Cu_k,SiO2_n,SiO2_k,Zn0.16_n,Zn0.16_k
250.0,1.000301584096422,0.0,1.3765573770491804,1.7761147540983606,1.5075680473372781,0.0,1.289918,0.933073
251.0,1.000301315191963,0.0,1.3831147540983608,1.7692295081967213,1.5070727810650888,0.0,1.2950766827301556,0.9356133977625855
252.0,1.0003010462875042,0.0,1.389672131147541,1.762344262295082,1.5065775147928995,0.0,1.3002353654603114,0.9381537955251709
253.0,1.0003007773830452,0.0,1.3962295081967213,1.7554590163934427,1.5060822485207102,0.0,1.305394048190467,0.9406941932877564
254.0,1.0003005084785863,0.0,1.4027868852459016,1.7485737704918034,1.5055869822485208,0.0,1.3105527309206226,0.9432345910503418
255.0,1.0003002395741274,0.0,1.409344262295082,1.741688524590164,1.5050917159763313,0.0,1.3157114136507784,0.9457749888129272
256.0,1.0002999706696685,0.0,1.41,1.734076923076923,1.504596449704142,0.0,1.3208283225659108,0.948220518861349
257.0,1.0002997017652095,0.0,1.41,1.7263846153846154,1.5041011834319526,0.0,1.3259443754742204,0.9506641049309762
258.0,1.0002994328607506,0.0,1.41,1.7186923076923077,1.5036059171597633,0.0,1.33106042838253,0.9531076910006033
259.0,1.0002991639562917,0.0,1.41,1.711,1.503110650887574,0.0,1.3361764812908397,0.9555512770702305
260.0,1.000298936342611,0.0,1.41,1.7033076923076924,1.5026153846153847,0.0,1.3412925341991493,0.9579948631398576
261.0,1.0002987190516246,0.0,1.41,1.6956153846153847,1.5021201183431954,0.0,1.3457422562911348,0.9618852596305237
262.0,1.0002985017606383,0.0,1.4121917808219175,1.6897397260273974,1.501624852071006,0.0,1.3501640981741327,0.9658361926833835
263.0,1.000298284469652,0.0,1.4176712328767123,1.6865890410958906,1.5011295857988165,0.0,1.3545859400571305,0.9697871257362431
264.0,1.0002980671786657,0.0,1.4231506849315068,1.6834383561643835,1.5006343195266272,0.0,1.3590077819401285,0.9737380587891029
265.0,1.0002978498876793,0.0,1.4286301369863013,1.6802876712328767,1.5001390532544379,0.0,1.3634296238231263,0.9776889918419626
266.0,1.000297632596693,0.0,1.4341095890410958,1.6771369863013699,1.499722119205298,0.0,1.3677638561038867,0.981927089702156
267.0,1.000297415305707,0.0,1.4395890410958905,1.673986301369863,1.4993247682119206,0.0,1.3720924723809182,0.9861835955745725
268.0,1.0002971980147206,0.0,1.445068493150685,1.670835616438356,1.4989274172185432,0.0,1.3764210886579495,0.9904401014469888
269.0,1.0002969807237343,0.0,1.4501388888888889,1.6676944444444444,1.4985300662251655,0.0,1.380749704934981,0.9946966073194052
270.0,1.000296763432748,0.0,1.4515277777777778,1.6646388888888888,1.498132715231788,0.0,1.3850783212120126,0.9989531131918216
271.0,1.0002965461417617,0.0,1.4529166666666666,1.6615833333333332,1.4977353642384106,0.0,1.3894313023003015,1.0031174686683342
272.0,1.0002963288507754,0.0,1.4543055555555555,1.6585277777777776,1.4973380132450331,0.0,1.3937864113114908,1.0072737761064015
273.0,1.000296111559789,0.0,1.4556944444444444,1.6554722222222222,1.4969406622516557,0.0,1.3981415203226801,1.0114300835444687
274.0,1.0002959019860658,0.0,1.4570833333333333,1.6524166666666666,1.4965433112582782,0.0,1.4024966293338694,1.015586390982536
275.0,1.0002957232813945,0.0,1.4584722222222222,1.649361111111111,1.4961459602649008,0.0,1.4068517383450587,1.0197426984206033
276.0,1.0002955445767232,0.0,1.459861111111111,1.6463055555555555,1.4957486092715233,0.0,1.4073809295656643,1.0245736943514845
277.0,1.0002953658720521,0.0,1.4589156626506024,1.644590361445783,1.4953512582781456,0.0,1.4074831191722044,1.0294799906654875
278.0,1.0002951871673809,0.0,1.457710843373494,1.643024096385542,1.4949539072847682,0.0,1.4075853087787447,1.0343862869794904
279.0,1.0002950084627096,0.0,1.4565060240963854,1.6414578313253012,1.4945565562913907,0.0,1.4076874983852847,1.0392925832934936
280.0,1.0002948297580383,0.0,1.455301204819277,1.6398915662650602,1.4941592052980133,0.0,1.4077896879918248,1.0441988796074966
281.0,1.0002946510533672,0.0,1.4540963855421687,1.6383253012048193,1.4938210502283105,0.0,1.407633457603066,1.049203112719718
282.0,1.000294472348696,0.0,1.45289156626506,1.6367590361445783,1.4935082648401827,0.0,1.4074418271908018,1.0542207618408472
283.0,1.0002942936440247,0.0,1.4516867469879517,1.6351927710843372,1.4931954794520548,0.0,1.4072501967785374,1.0592384109619768
284.0,1.0002941149393534,0.0,1.4504819277108434,1.6336265060240964,1.492882694063927,0.0,1.4070585663662731,1.0642560600831064
285.0,1.0002939362346823,0.0,1.4477499999999999,1.633,1.492569908675799,0.0,1.4068669359540087,1.069273709204236
286.0,1.000293757530011,0.0,1.444,1.633,1.4922571232876713,0.0,1.40672752158262,1.0743048822684336
287.0,1.0002935788253398,0.0,1.4402499999999998,1.633,1.4919443378995434,0.0,1.4065966472003142,1.07933826718792
288.0,1.0002934001206685,0.0,1.4364999999999999,1.633,1.4916315525114157,0.0,1.4064657728180083,1.0843716521074063
289.0,1.0002932391686576,0.0,1.4327499999999997,1.633,1.4913187671232877,0.0,1.4063348984357025,1.0894050370268926
290.0,1.0002930900517535,0.0,1.4289999999999998,1.633,1.4910059817351597,0.0,1.4062040240533966,1.094438421946379
291.0,1.0002929409348493,0.0,1.42525,1.633,1.490693196347032,0.0,1.4063619039198578,1.0952347944054677
292.0,1.0002927918179452,0.0,1.4214999999999998,1.633,1.490380410958904,0.0,1.406575047933499,1.0952202528045372
293.0,1.0002926427010412,0.0,1.4185882352941175,1.6362470588235296,1.4900676255707763,0.0,1.4067881919471403,1.0952057112036064
294.0,1.000292493584137,0.0,1.416235294117647,1.6416588235294118,1.4897548401826484,0.0,1.4070013359607816,1.0951911696026757
295.0,1.000292344467233,0.0,1.4138823529411764,1.6470705882352943,1.4894420547945206,0.0,1.4072144799744228,1.095176628001745
296.0,1.0002921953503288,0.0,1.4115294117647057,1.6524823529411765,1.4891292694063927,0.0,1.4075454543800099,1.0932869185289877
297.0,1.0002920462334248,0.0,1.4091764705882353,1.657894117647059,1.488816484018265,0.0,1.4079024208028559,1.0909835687815732
298.0,1.0002918971165207,0.0,1.4068235294117646,1.6633058823529414,1.488503698630137,0.0,1.4082593872257017,1.088680219034159
299.0,1.0002917479996165,0.0,1.404470588235294,1.6687176470588236,1.4881909132420093,0.0,1.4086163536485474,1.0863768692867446
300.0,1.0002915988827124,0.0,1.4021176470588235,1.674129411764706,1.4878781278538813,0.0,1.4089733200713934,1.08407351953933
301.0,1.0002914497658084,0.0,1.3997959183673467,1.6795102040816328,1.4875653424657533,0.0,1.4093514600401866,1.0817867269607802
302.0,1.0002913006489043,0.0,1.397755102040816,1.6846122448979592,1.4872525570776256,0.0,1.4097349199883429,1.079504094469392
303.0,1.000291151532,0.0,1.3957142857142857,1.689714285714286,1.4870003914590748,0.0,1.4101183799364991,1.077221461978004
304.0,1.000291025576452,0.0,1.393673469387755,1.6948163265306124,1.4867633807829181,0.0,1.4105018398846554,1.0749388294866158
305.0,1.0002908996209041,0.0,1.3916326530612244,1.699918367346939,1.4865263701067615,0.0,1.4108852998328114,1.0726561969952277
306.0,1.0002907736653561,0.0,1.3895918367346938,1.7050204081632654,1.486289359430605,0.0,1.4114782797286098,1.0704885672881708
307.0,1.0002906477098084,0.0,1.3875510204081631,1.710122448979592,1.4860523487544484,0.0,1.4121306597703622,1.068353541551529
308.0,1.0002905217542604,0.0,1.3855102040816325,1.7152244897959186,1.4858153380782917,0.0,1.4127830398121146,1.0662185158148874
309.0,1.0002903957987124,0.0,1.3834693877551019,1.720326530612245,1.4855783274021352,0.0,1.4134354198538668,1.0640834900782459
310.0,1.0002902698431644,0.0,1.3814285714285712,1.7254285714285715,1.4853413167259786,0.0,1.4140877998956192,1.0619484643416042
311.0,1.0002901438876164,0.0,1.38,1.7306701030927836,1.4851043060498221,0.0,1.4179078195367403,1.0614841983936512
312.0,1.0002900179320684,0.0,1.38,1.736237113402062,1.4848672953736655,0.0,1.42273343984558,1.0615503327978837
313.0,1.0002898919765206,0.0,1.38,1.7418041237113402,1.4846302846975088,0.0,1.4275590601544197,1.0616164672021162
314.0,1.0002897660209726,0.0,1.38,1.7473711340206186,1.4843932740213523,0.0,1.4323846804632594,1.061682601606349
315.0,1.0002896400654246,0.0,1.38,1.7529381443298968,1.4841562633451957,0.0,1.437210300772099,1.0617487360105815
316.0,1.0002895141098767,0.0,1.38,1.7585051546391752,1.483919252669039,0.0,1.4419988266696944,1.0617972064094596
317.0,1.0002893881543287,0.0,1.38,1.7640721649484534,1.4836822419928826,0.0,1.4467742485753214,1.0618394368121624
318.0,1.0002892695771644,0.0,1.38,1.7696391752577318,1.483445231316726,0.0,1.4515496704809485,1.0618816672148652
319.0,1.0002891620675753,0.0,1.38,1.77520618556701,1.4832082206405692,0.0,1.4563250923865756,1.061923897617568
320.0,1.0002890545579863,0.0,1.38,1.7807731958762885,1.4829712099644128,0.0,1.4611005142922024,1.0619661280202706
321.0,1.0002889470483973,0.0,1.3778378378378378,1.7850540540540538,1.4827341992882561,0.0,1.4658412810946677,1.0619907448071058
322.0,1.000288839538808,0.0,1.3742342342342342,1.7884774774774772,1.4824971886120997,0.0,1.4705684956555483,1.0620084736047088
323.0,1.000288732029219,0.0,1.3706306306306306,1.7919009009009008,1.482260177935943,0.0,1.4752957102164288,1.062026202402312
324.0,1.00028862451963,0.0,1.367027027027027,1.7953243243243242,1.4820231672597863,0.0,1.4800229247773096,1.062043931199915
325.0,1.000288517010041,0.0,1.3634234234234235,1.7987477477477476,1.4817861565836299,0.0,1.4847501393381901,1.0620616599975181
326.0,1.000288409500452,0.0,1.35981981981982,1.802171171171171,1.4815491459074732,0.0,1.489445060163384,1.062062406400894
327.0,1.000288301990863,0.0,1.3562162162162164,1.8055945945945946,1.4813121352313166,0.0,1.494126061262968,1.0620558328004734
328.0,1.000288194481274,0.0,1.3526126126126126,1.809018018018018,1.48107512455516,0.0,1.4988070623625522,1.0620492592000526
329.0,1.0002880869716848,0.0,1.349009009009009,1.8124414414414414,1.4808381138790034,0.0,1.5034880634621361,1.0620426855996319
330.0,1.0002879794620958,0.0,1.3454054054054054,1.8158648648648648,1.480601103202847,0.0,1.5081690645617203,1.062036111999211
331.0,1.0002878719525068,0.0,1.3418018018018019,1.8192882882882881,1.4804070454545453,0.0,1.5125031423672533,1.063054625076692
332.0,1.0002877644429178,0.0,1.340909090909091,1.8229545454545455,1.480231396103896,0.0,1.5166729962341239,1.0645583859729326
333.0,1.0002876688592082,0.0,1.3427272727272728,1.8268636363636364,1.4800557467532467,0.0,1.5208428501009945,1.0660621468691733
334.0,1.0002875762569685,0.0,1.3445454545454547,1.8307727272727272,1.4798800974025974,0.0,1.525012703967865,1.067565907765414
335.0,1.0002874836547286,0.0,1.3463636363636364,1.834681818181818,1.479704448051948,0.0,1.5291825578347356,1.0690696686616548
336.0,1.000287391052489,0.0,1.3481818181818184,1.8385909090909092,1.4795287987012986,0.0,1.5333210543367726,1.070610558981618
337.0,1.0002872984502493,0.0,1.35,1.8425,1.4793531493506493,0.0,1.537443298579445,1.0721706931706878
338.0,1.0002872058480095,0.0,1.3518181818181818,1.8464090909090909,1.4791775,0.0,1.5415655428221178,1.0737308273597577
339.0,1.0002871132457698,0.0,1.3536363636363637,1.850318181818182,1.4790018506493505,0.0,1.5456877870647903,1.0752909615488275
340.0,1.0002870206435301,0.0,1.3554545454545455,1.8542272727272728,1.4788262012987012,0.0,1.549810031307463,1.0768510957378974
341.0,1.0002869280412905,0.0,1.3572727272727274,1.8581363636363637,1.478650551948052,0.0,1.553923244876974,1.0783852813325685
342.0,1.0002868354390506,0.0,1.3590909090909091,1.8620454545454546,1.4784749025974024,0.0,1.5580313467398925,1.0799047790298162
343.0,1.000286742836811,0.0,1.3604273504273505,1.8662222222222222,1.4782992532467532,0.0,1.562139448602811,1.081424276727064
344.0,1.0002866502345713,0.0,1.3612820512820514,1.8706666666666667,1.4781236038961039,0.0,1.5662475504657296,1.082943774424312
345.0,1.0002865576323314,0.0,1.3621367521367522,1.8751111111111112,1.4779479545454546,0.0,1.5703556523286482,1.0844632721215597
346.0,1.0002864650300918,0.0,1.362991452991453,1.8795555555555556,1.477772305194805,0.0,1.574455376589616,1.0859582530130993
347.0,1.0002863748680233,0.0,1.363846153846154,1.8840000000000001,1.4775966558441558,0.0,1.5785499328516677,1.0874381099078103
348.0,1.0002862944666397,0.0,1.3647008547008548,1.8884444444444446,1.4774210064935065,0.0,1.5826444891137192,1.088917966802521
349.0,1.0002862140652562,0.0,1.3655555555555556,1.8928888888888888,1.4772453571428572,0.0,1.5867390453757708,1.090397823697232
350.0,1.0002861336638726,0.0,1.3664102564102565,1.8973333333333333,1.4770697077922077,0.0,1.5908336016378224,1.0918776805919428
351.0,1.000286053262489,0.0,1.3672649572649573,1.9017777777777778,1.4768940584415584,0.0,1.5948510349673641,1.0933888869283186
352.0,1.0002859728611055,0.0,1.3681196581196582,1.9062222222222223,1.4767184090909091,0.0,1.598816708031205,1.0949211331211588
353.0,1.000285892459722,0.0,1.368974358974359,1.9106666666666667,1.4765427597402596,0.0,1.6027823810950461,1.096453379313999
354.0,1.0002858120583384,0.0,1.36982905982906,1.915111111111111,1.4763671103896103,0.0,1.606748054158887,1.0979856255068394
355.0,1.000285731656955,0.0,1.3694160583941606,1.9194452554744525,1.476191461038961,0.0,1.610713727222728,1.0995178716996796
356.0,1.0002856512555713,0.0,1.3686861313868615,1.9237518248175183,1.4760158116883118,0.0,1.614457064826457,1.101200569212841
357.0,1.0002855708541878,0.0,1.3679562043795621,1.928058394160584,1.4758401623376622,0.0,1.6180382826556547,1.1029929709275548
358.0,1.000285490452804,0.0,1.3672262773722628,1.9323649635036497,1.475664512987013,0.0,1.6216195004848528,1.1047853726422685
359.0,1.0002854100514205,0.0,1.3664963503649636,1.9366715328467154,1.4754888636363637,0.0,1.6252007183140507,1.1065777743569822
360.0,1.000285329650037,0.0,1.3657664233576643,1.9409781021897812,1.4753132142857144,0.0,1.6287819361432485,1.108370176071696
361.0,1.0002852492486534,0.0,1.365036496350365,1.945284671532847,1.4751375649350649,0.0,1.6323732731743317,1.1101524585845244
362.0,1.000285174905285,0.0,1.3643065693430658,1.9495912408759124,1.4750062614678898,0.0,1.6359726182046899,1.111926733098078
363.0,1.0002851046005932,0.0,1.3635766423357665,1.9538978102189781,1.474879885321101,0.0,1.639571963235048,1.1137010076116316
364.0,1.0002850342959013,0.0,1.3628467153284671,1.9582043795620439,1.474753509174312,0.0,1.6431713082654062,1.1154752821251852
365.0,1.0002849639912097,0.0,1.362116788321168,1.9625109489051096,1.474627133027523,0.0,1.6467706532957642,1.1172495566387388
366.0,1.0002848936865179,0.0,1.3613868613138687,1.9668175182481753,1.474500756880734,0.0,1.6503708555407772,1.1190079653527503
367.0,1.000284823381826,0.0,1.3606569343065695,1.971124087591241,1.474374380733945,0.0,1.6539717934539304,1.1207527579168544
368.0,1.0002847530771344,0.0,1.359779411764706,1.9755147058823532,1.474248004587156,0.0,1.6575727313670836,1.1224975504809585
369.0,1.0002846827724425,0.0,1.3575735294117648,1.9806617647058826,1.4741216284403669,0.0,1.6611736692802368,1.1242423430450623
370.0,1.0002846124677507,0.0,1.3553676470588236,1.985808823529412,1.473995252293578,0.0,1.66477460719339,1.1259871356091664
371.0,1.0002845421630588,0.0,1.3531617647058825,1.9909558823529414,1.473868876146789,0.0,1.6683747198785677,1.1277161387611352
372.0,1.0002844718583672,0.0,1.3509558823529413,1.9961029411764708,1.4737425,0.0,1.6719740649089259,1.1294304540708515
373.0,1.0002844015536754,0.0,1.3487500000000001,2.00125,1.473616123853211,0.0,1.6755734099392838,1.1311447693805676
374.0,1.0002843312489835,0.0,1.346544117647059,2.0063970588235294,1.473489747706422,0.0,1.679172754969642,1.132859084690284
375.0,1.000284260944292,0.0,1.3443382352941178,2.011544117647059,1.473363371559633,0.0,1.6827721,1.1345734
376.0,1.0002841906396,0.0,1.3421323529411766,2.016691176470588,1.4732369954128441,0.0,1.6863709490302945,1.1362727361077911
377.0,1.0002841287722577,0.0,1.3399264705882354,2.0218382352941178,1.473110619266055,0.0,1.6899692980605887,1.1379569722155822
378.0,1.0002840669049151,0.0,1.3377205882352943,2.026985294117647,1.4729842431192661,0.0,1.693567647090883,1.1396412083233733
379.0,1.0002840050375728,0.0,1.335514705882353,2.0321323529411766,1.472857866972477,0.0,1.6971659961211774,1.1413254444311645
380.0,1.0002839431702302,0.0,1.333308823529412,2.0372794117647057,1.472731490825688,0.0,1.7007643451514716,1.1430096805389556
381.0,1.0002838813028878,0.0,1.3311029411764708,2.0424264705882353,1.4726051146788992,0.0,1.7042497865709736,1.1447350429112597
382.0,1.0002838194355452,0.0,1.329685534591195,2.0472327044025156,1.47247873853211,0.0,1.707611883716418,1.1465053330719166
383.0,1.0002837575682029,0.0,1.329056603773585,2.051698113207547,1.4723523623853212,0.0,1.7109739808618625,1.1482756232325733
384.0,1.0002836957008603,0.0,1.328427672955975,2.0561635220125787,1.472225986238532,0.0,1.7143360780073071,1.1500459133932301
385.0,1.000283633833518,0.0,1.3277987421383648,2.06062893081761,1.4720996100917432,0.0,1.7176981751527516,1.1518162035538868
386.0,1.0002835719661753,0.0,1.3271698113207548,2.0650943396226413,1.4719732339449543,0.0,1.721035557420798,1.1535871322755813
387.0,1.000283510098833,0.0,1.3265408805031447,2.069559748427673,1.4718468577981652,0.0,1.7243436720325174,1.155358817188969
388.0,1.0002834482314904,0.0,1.3259119496855347,2.0740251572327044,1.4717204816513763,0.0,1.7276517866442367,1.157130502102357
389.0,1.000283386364148,0.0,1.3252830188679245,2.0784905660377357,1.4715941055045871,0.0,1.730959901255956,1.1589021870157448
390.0,1.0002833244968055,0.0,1.3246540880503146,2.0829559748427675,1.4714677293577982,0.0,1.7342680158676753,1.1606738719291325
391.0,1.0002832654743918,0.0,1.3240251572327044,2.087421383647799,1.4713413532110091,0.0,1.737577176879452,1.1624348312419324
392.0,1.0002832107193713,0.0,1.3233962264150945,2.09188679245283,1.4712149770642202,0.0,1.7408876818913244,1.164182014553752
393.0,1.0002831559643508,0.0,1.3227672955974843,2.096352201257862,1.4710886009174313,0.0,1.7441981869031966,1.165929197865572
394.0,1.0002831012093303,0.0,1.3221383647798743,2.1008176100628932,1.4709622247706422,0.0,1.747508691915069,1.1676763811773916
395.0,1.0002830464543095,0.0,1.3215094339622642,2.1052830188679246,1.4708358486238533,0.0,1.7508191969269413,1.1694235644892113
396.0,1.000282991699289,0.0,1.3208805031446542,2.1097484276729563,1.4707094724770642,0.0,1.754130700064003,1.1711605140492753
397.0,1.0002829369442685,0.0,1.320251572327044,2.1142138364779877,1.4705830963302753,0.0,1.7574435948160996,1.1728831954163688
398.0,1.000282882189248,0.0,1.318490566037736,2.1194339622641514,1.4704567201834864,0.0,1.7607564895681962,1.1746058767834622
399.0,1.0002828274342275,0.0,1.3159748427672957,2.1251572327044026,1.4703303440366973,0.0,1.7640693843202928,1.1763285581505558
400.0,1.000282772679207,0.0,1.3134591194968555,2.1308805031446543,1.4702039678899084,0.0,1.7673822790723892,1.1780512395176492
401.0,1.0002827179241864,0.0,1.3109433962264152,2.136603773584906,1.4700775917431192,0.0,1.7706973124850598,1.1797655258282738
402.0,1.0002826631691657,0.0,1.308427672955975,2.142327044025157,1.4699512155963304,0.0,1.7740155862974294,1.181467092337174
403.0,1.0002826084141452,0.0,1.3059119496855347,2.148050314465409,1.4698248394495415,0.0,1.777333860109799,1.1831686588460741
404.0,1.0002825536591247,0.0,1.3033962264150944,2.1537735849056605,1.4696984633027523,0.0,1.7806521339221684,1.1848702253549745
405.0,1.0002824989041041,0.0,1.3008805031446542,2.159496855345912,1.4695818327974277,0.0,1.783970407734538,1.1865717918638747
406.0,1.0002824489830124,0.0,1.298364779874214,2.1652201257861634,1.4694879421221865,0.0,1.7872943215466686,1.1882687711729694
407.0,1.0002824002704027,0.0,1.2958490566037737,2.170943396226415,1.4693940514469455,0.0,1.7906275353599943,1.189958186481092
408.0,1.0002823515577932,0.0,1.2933333333333334,2.1766666666666667,1.4693001607717042,0.0,1.79396074917332,1.1916476017892146
